   0.0000   5184210
   0.0050   5800370
   0.0100   6217660
   0.0150   6325070
   0.0200   6119580
   0.0250   5674190
   0.0300   4926160
   0.0350   4052830
   0.0400   3197110
   0.0450   2605910
   0.0500   2272400
   0.0550   2092100
   0.0600   1993120
   0.0650   1970820
   0.0700   1957180
   0.0750   1979100
   0.0800   2027660
   0.0850   2074070
   0.0900   2146610
   0.0950   2214170
   0.1000   2294120
   0.1050   2375440
   0.1100   2462450
   0.1150   2527380
   0.1200   2613150
   0.1250   2687740
   0.1300   2743670
   0.1350   2792930
   0.1400   2862980
   0.1450   2920190
   0.1500   2980220
   0.1550   3030130
   0.1600   3085110
   0.1650   3130890
   0.1700   3174490
   0.1750   3233530
   0.1800   3258430
   0.1850   3291550
   0.1900   3301360
   0.1950   3279720
   0.2000   3217190
   0.2050   3073310
   0.2100   2884040
   0.2150   2647660
   0.2200   2369540
   0.2250   2085360
   0.2300   1793470
   0.2350   1499250
   0.2400   1204020
   0.2450    936916
   0.2500    740895
   0.2550    576352
   0.2600    442048
   0.2650    359923
   0.2700    309010
   0.2750    274687
   0.2800    244723
   0.2850    215083
   0.2900    185654
   0.2950    159082
   0.3000    138539
   0.3050    125369
   0.3100    115890
   0.3150    108508
   0.3200    102026
   0.3250     95032
   0.3300     86769
   0.3350     77841
   0.3400     70265
   0.3450     64083
   0.3500     59566
   0.3550     57356
   0.3600     54447
   0.3650     51940
   0.3700     48866
   0.3750     44611
   0.3800     40874
   0.3850     37818
   0.3900     35276
   0.3950     33564
   0.4000     32459
   0.4050     31517
   0.4100     30549
   0.4150     28361
   0.4200     26701
   0.4250     24350
   0.4300     22550
   0.4350     21397
   0.4400     20423
   0.4450     20050
   0.4500     19688
   0.4550     19393
   0.4600     18333
   0.4650     17289
   0.4700     16030
   0.4750     14759
   0.4800     13739
   0.4850     12890
   0.4900     12837
   0.4950     12678
   0.5000     12428
   0.5050     12139
   0.5100     11841
   0.5150     11230
   0.5200     10367
   0.5250      9321
   0.5300      8894
   0.5350      8333
   0.5400      8207
   0.5450      8113
   0.5500      8187
   0.5550      8134
   0.5600      7880
   0.5650      7598
   0.5700      6954
   0.5750      6367
   0.5800      5858
   0.5850      5652
   0.5900      5256
   0.5950      5483
   0.6000      5574
   0.6050      5602
   0.6100      5404
   0.6150      5282
   0.6200      5005
   0.6250      4353
   0.6300      4024
   0.6350      3771
   0.6400      3570
   0.6450      3547
   0.6500      3721
   0.6550      3719
   0.6600      3805
   0.6650      3754
   0.6700      3544
   0.6750      3160
   0.6800      2756
   0.6850      2628
   0.6900      2508
   0.6950      2468
   0.7000      2476
   0.7050      2598
   0.7100      2597
   0.7150      2611
   0.7200      2537
   0.7250      2322
   0.7300      2168
   0.7350      1977
   0.7400      1796
   0.7450      1776
   0.7500      1721
   0.7550      1786
   0.7600      1909
   0.7650      1821
   0.7700      1801
   0.7750      1725
   0.7800      1649
   0.7850      1402
   0.7900      1287
   0.7950      1302
   0.8000      1224
   0.8050      1331
   0.8100      1335
   0.8150      1281
   0.8200      1264
   0.8250      1308
   0.8300      1211
   0.8350      1097
   0.8400       991
   0.8450       979
   0.8500       901
   0.8550       896
   0.8600       923
   0.8650       985
   0.8700       936
   0.8750       942
   0.8800       893
   0.8850       860
   0.8900       828
   0.8950       687
   0.9000       663
   0.9050       666
   0.9100       692
   0.9150       695
   0.9200       684
   0.9250       733
   0.9300       712
   0.9350       638
   0.9400       627
   0.9450       551
   0.9500       519
   0.9550       454
   0.9600       489
   0.9650       518
   0.9700       490
   0.9750       496
   0.9800       523
   0.9850       492
   0.9900       459
   0.9950       405
   1.0000       357
   1.0050       367
   1.0100       365
   1.0150       376
   1.0200       390
   1.0250       422
   1.0300       359
   1.0350       367
   1.0400       317
   1.0450       368
   1.0500       310
   1.0550       285
   1.0600       270
   1.0650       272
   1.0700       265
   1.0750       307
   1.0800       295
   1.0850       279
   1.0900       313
   1.0950       254
   1.1000       235
   1.1050       197
   1.1100       246
   1.1150       190
   1.1200       211
   1.1250       210
   1.1300       218
   1.1350       228
   1.1400       217
   1.1450       207
   1.1500       192
   1.1550       177
   1.1600       180
   1.1650       170
   1.1700       169
   1.1750       151
   1.1800       164
   1.1850       168
   1.1900       183
   1.1950       160
   1.2000       151
   1.2050       161
   1.2100       139
   1.2150       136
   1.2200       140
   1.2250       138
   1.2300       113
   1.2350       110
   1.2400       102
   1.2450       126
   1.2500       121
   1.2550       129
   1.2600        87
   1.2650       111
   1.2700       113
   1.2750       111
   1.2800        96
   1.2850       102
   1.2900        94
   1.2950       106
   1.3000        94
   1.3050        81
   1.3100        86
   1.3150        81
   1.3200        73
   1.3250        72
   1.3300        96
   1.3350        68
   1.3400        92
   1.3450        90
   1.3500        79
   1.3550        77
   1.3600        61
   1.3650        72
   1.3700        51
   1.3750        53
   1.3800        78
   1.3850        67
   1.3900        50
   1.3950        67
   1.4000        50
   1.4050        59
   1.4100        56
   1.4150        63
   1.4200        50
   1.4250        42
   1.4300        44
   1.4350        38
   1.4400        41
   1.4450        49
   1.4500        52
   1.4550        53
   1.4600        41
   1.4650        45
   1.4700        46
   1.4750        33
   1.4800        42
   1.4850        29
   1.4900        41
   1.4950        39
   1.5000        46
   1.5050        37
   1.5100        38
   1.5150        37
   1.5200        28
   1.5250        32
   1.5300        28
   1.5350        30
   1.5400        26
   1.5450        23
   1.5500        28
   1.5550        25
   1.5600        20
   1.5650        32
   1.5700        32
   1.5750        23
   1.5800        29
   1.5850        20
   1.5900        24
   1.5950        25
   1.6000        31
   1.6050        22
   1.6100        20
   1.6150        17
   1.6200        19
   1.6250        26
   1.6300        16
   1.6350        27
   1.6400        26
   1.6450        22
   1.6500        14
   1.6550        21
   1.6600        30
   1.6650        21
   1.6700        20
   1.6750        19
   1.6800        18
   1.6850        17
   1.6900        15
   1.6950        11
   1.7000        13
   1.7050        12
   1.7100        17
   1.7150        13
   1.7200        14
   1.7250        17
   1.7300        18
   1.7350        11
   1.7400        14
   1.7450        10
   1.7500        16
   1.7550        14
   1.7600        15
   1.7650        15
   1.7700        11
   1.7750        12
   1.7800         9
   1.7850        13
   1.7900         9
   1.7950        14
   1.8000        10
   1.8050        13
   1.8100         7
   1.8150        12
   1.8200        11
   1.8250         9
   1.8300         6
   1.8350         6
   1.8400         8
   1.8450        10
   1.8500        10
   1.8550         6
   1.8600        10
   1.8650         9
   1.8700         7
   1.8750        13
   1.8800         8
   1.8850         5
   1.8900         8
   1.8950         5
   1.9000         7
   1.9050         9
   1.9100         9
   1.9150         7
   1.9200         2
   1.9250        13
   1.9300         6
   1.9350         7
   1.9400        10
   1.9450         4
   1.9500         5
   1.9550         2
   1.9600         7
   1.9650         3
   1.9700         5
   1.9750         7
   1.9800         8
   1.9850         9
   1.9900         3
   1.9950         4
   2.0000         6
   2.0050         5
   2.0100         5
   2.0150         5
   2.0200         5
   2.0250         3
   2.0300         6
   2.0350         5
   2.0400         5
   2.0450         5
   2.0500         2
   2.0550         4
   2.0600         3
   2.0650         3
   2.0700         7
   2.0750         3
   2.0800         3
   2.0850         3
   2.0900         4
   2.0950         9
   2.1000         1
   2.1050         4
   2.1100         4
   2.1150         1
   2.1200         2
   2.1250         5
   2.1300         3
   2.1350         2
   2.1400         3
   2.1450         4
   2.1500         1
   2.1550         1
   2.1600         5
   2.1650         3
   2.1700         4
   2.1750         2
   2.1800         9
   2.1850         2
   2.1900         3
   2.1950         4
   2.2000         4
   2.2050         2
   2.2100         1
   2.2150         2
   2.2200         5
   2.2250         2
   2.2300         0
   2.2350         3
   2.2400         3
   2.2450         3
   2.2500         5
   2.2550         1
   2.2600         0
   2.2650         0
   2.2700         1
   2.2750         3
   2.2800         4
   2.2850         1
   2.2900         6
   2.2950         3
   2.3000         3
   2.3050         3
   2.3100         1
   2.3150         0
   2.3200         1
   2.3250         3
   2.3300         5
   2.3350         2
   2.3400         3
   2.3450         3
   2.3500         0
   2.3550         5
   2.3600         1
   2.3650         4
   2.3700         4
   2.3750         1
   2.3800         0
   2.3850         0
   2.3900         4
   2.3950         2
   2.4000         3
   2.4050         1
   2.4100         6
   2.4150         1
   2.4200         1
   2.4250         2
   2.4300         3
   2.4350         3
   2.4400         1
   2.4450         0
   2.4500         1
   2.4550         2
   2.4600         1
   2.4650         2
   2.4700         1
   2.4750         0
   2.4800         2
   2.4850         2
   2.4900         2
   2.4950         0
   2.5000         1
