   0.0000   1051580
   0.0050    835804
   0.0100    717066
   0.0150    608760
   0.0200    498461
   0.0250    430743
   0.0300    382631
   0.0350    337318
   0.0400    313330
   0.0450    292983
   0.0500    274632
   0.0550    261216
   0.0600    243802
   0.0650    226474
   0.0700    214276
   0.0750    197614
   0.0800    181788
   0.0850    174197
   0.0900    166259
   0.0950    157488
   0.1000    149454
   0.1050    140912
   0.1100    132058
   0.1150    123824
   0.1200    115424
   0.1250    105364
   0.1300     96992
   0.1350     90856
   0.1400     85195
   0.1450     77719
   0.1500     69880
   0.1550     61911
   0.1600     55787
   0.1650     50721
   0.1700     46723
   0.1750     42160
   0.1800     37892
   0.1850     33834
   0.1900     30035
   0.1950     26597
   0.2000     23830
   0.2050     20814
   0.2100     18203
   0.2150     15377
   0.2200     12795
   0.2250     10583
   0.2300      8821
   0.2350      7306
   0.2400      6201
   0.2450      5310
   0.2500      4733
   0.2550      4150
   0.2600      3709
   0.2650      3159
   0.2700      2569
   0.2750      2288
   0.2800      2108
   0.2850      1964
   0.2900      1975
   0.2950      1826
   0.3000      1847
   0.3050      1648
   0.3100      1471
   0.3150      1278
   0.3200      1130
   0.3250       974
   0.3300       944
   0.3350       960
   0.3400       951
   0.3450       993
   0.3500       981
   0.3550       929
   0.3600       839
   0.3650       716
   0.3700       671
   0.3750       645
   0.3800       592
   0.3850       608
   0.3900       685
   0.3950       684
   0.4000       659
   0.4050       639
   0.4100       615
   0.4150       547
   0.4200       443
   0.4250       376
   0.4300       393
   0.4350       416
   0.4400       494
   0.4450       499
   0.4500       457
   0.4550       504
   0.4600       441
   0.4650       400
   0.4700       312
   0.4750       319
   0.4800       341
   0.4850       326
   0.4900       349
   0.4950       366
   0.5000       391
   0.5050       372
   0.5100       338
   0.5150       320
   0.5200       304
   0.5250       267
   0.5300       251
   0.5350       221
   0.5400       248
   0.5450       260
   0.5500       271
   0.5550       248
   0.5600       300
   0.5650       251
   0.5700       239
   0.5750       193
   0.5800       226
   0.5850       195
   0.5900       202
   0.5950       194
   0.6000       220
   0.6050       236
   0.6100       232
   0.6150       204
   0.6200       196
   0.6250       145
   0.6300       163
   0.6350       166
   0.6400       139
   0.6450       152
   0.6500       150
   0.6550       182
   0.6600       170
   0.6650       198
   0.6700       178
   0.6750       149
   0.6800       126
   0.6850       121
   0.6900       131
   0.6950       125
   0.7000       119
   0.7050       124
   0.7100       141
   0.7150       133
   0.7200       130
   0.7250       154
   0.7300       109
   0.7350       113
   0.7400       117
   0.7450        98
   0.7500        97
   0.7550       106
   0.7600        98
   0.7650       110
   0.7700       116
   0.7750       120
   0.7800       103
   0.7850        93
   0.7900        72
   0.7950        87
   0.8000        66
   0.8050        79
   0.8100        77
   0.8150        99
   0.8200        79
   0.8250        94
   0.8300        78
   0.8350        69
   0.8400        75
   0.8450        72
   0.8500        71
   0.8550        68
   0.8600        55
   0.8650        65
   0.8700        71
   0.8750        93
   0.8800        74
   0.8850        76
   0.8900        68
   0.8950        42
   0.9000        52
   0.9050        54
   0.9100        53
   0.9150        56
   0.9200        67
   0.9250        47
   0.9300        44
   0.9350        61
   0.9400        47
   0.9450        40
   0.9500        37
   0.9550        42
   0.9600        44
   0.9650        43
   0.9700        55
   0.9750        52
   0.9800        47
   0.9850        48
   0.9900        47
   0.9950        32
   1.0000        34
   1.0050        36
   1.0100        38
   1.0150        36
   1.0200        28
   1.0250        35
   1.0300        34
   1.0350        29
   1.0400        34
   1.0450        30
   1.0500        36
   1.0550        32
   1.0600        26
   1.0650        30
   1.0700        27
   1.0750        31
   1.0800        32
   1.0850        28
   1.0900        28
   1.0950        21
   1.1000        37
   1.1050        26
   1.1100        23
   1.1150        18
   1.1200        16
   1.1250        17
   1.1300        15
   1.1350        27
   1.1400        18
   1.1450        24
   1.1500        21
   1.1550        17
   1.1600        16
   1.1650        18
   1.1700        16
   1.1750        12
   1.1800        19
   1.1850        23
   1.1900        16
   1.1950        16
   1.2000         8
   1.2050         7
   1.2100        20
   1.2150        16
   1.2200        24
   1.2250        17
   1.2300        15
   1.2350        17
   1.2400        28
   1.2450        16
   1.2500        12
   1.2550        16
   1.2600        17
   1.2650        13
   1.2700        13
   1.2750         8
   1.2800         9
   1.2850        12
   1.2900         9
   1.2950         5
   1.3000         8
   1.3050         8
   1.3100         9
   1.3150        12
   1.3200        11
   1.3250        11
   1.3300        10
   1.3350         8
   1.3400        11
   1.3450        10
   1.3500        10
   1.3550        17
   1.3600         8
   1.3650         7
   1.3700         6
   1.3750         5
   1.3800         9
   1.3850         3
   1.3900         4
   1.3950         4
   1.4000         7
   1.4050         7
   1.4100         6
   1.4150         4
   1.4200         9
   1.4250         4
   1.4300         7
   1.4350         5
   1.4400         4
   1.4450         9
   1.4500         8
   1.4550         6
   1.4600         3
   1.4650         5
   1.4700         6
   1.4750         7
   1.4800         4
   1.4850         2
   1.4900         3
   1.4950         4
   1.5000         8
   1.5050         2
   1.5100         2
   1.5150         6
   1.5200         2
   1.5250         3
   1.5300         5
   1.5350         4
   1.5400         3
   1.5450         1
   1.5500         4
   1.5550         1
   1.5600         3
   1.5650         4
   1.5700         0
   1.5750         3
   1.5800         3
   1.5850         4
   1.5900         3
   1.5950         4
   1.6000         5
   1.6050         3
   1.6100         4
   1.6150         4
   1.6200         2
   1.6250         3
   1.6300         9
   1.6350         2
   1.6400         4
   1.6450         0
   1.6500         4
   1.6550         4
   1.6600         4
   1.6650         3
   1.6700         0
   1.6750         7
   1.6800         1
   1.6850         1
   1.6900         3
   1.6950         2
   1.7000         3
   1.7050         2
   1.7100         1
   1.7150         2
   1.7200         3
   1.7250         4
   1.7300         5
   1.7350         5
   1.7400         2
   1.7450         2
   1.7500         3
   1.7550         0
   1.7600         0
   1.7650         2
   1.7700         1
   1.7750         2
   1.7800         2
   1.7850         2
   1.7900         2
   1.7950         1
   1.8000         1
   1.8050         2
   1.8100         1
   1.8150         1
   1.8200         3
   1.8250         2
   1.8300         2
   1.8350         4
   1.8400         5
   1.8450         0
   1.8500         1
   1.8550         2
   1.8600         3
   1.8650         0
   1.8700         1
   1.8750         0
   1.8800         1
   1.8850         2
   1.8900         0
   1.8950         0
   1.9000         2
   1.9050         2
   1.9100         2
   1.9150         3
   1.9200         3
   1.9250         1
   1.9300         1
   1.9350         2
   1.9400         4
   1.9450         3
   1.9500         3
   1.9550         0
   1.9600         0
   1.9650         0
   1.9700         0
   1.9750         1
   1.9800         2
   1.9850         1
   1.9900         0
   1.9950         1
   2.0000         0
   2.0050         1
   2.0100         0
   2.0150         2
   2.0200         0
   2.0250         3
   2.0300         2
   2.0350         0
   2.0400         2
   2.0450         1
   2.0500         3
   2.0550         0
   2.0600         0
   2.0650         0
   2.0700         1
   2.0750         1
   2.0800         2
   2.0850         1
   2.0900         0
   2.0950         0
   2.1000         1
   2.1050         1
   2.1100         0
   2.1150         0
   2.1200         0
   2.1250         1
   2.1300         0
   2.1350         1
   2.1400         0
   2.1450         1
   2.1500         0
   2.1550         1
   2.1600         4
   2.1650         1
   2.1700         3
   2.1750         0
   2.1800         1
   2.1850         0
   2.1900         1
   2.1950         3
   2.2000         1
   2.2050         1
   2.2100         1
   2.2150         1
   2.2200         0
   2.2250         1
   2.2300         0
   2.2350         0
   2.2400         0
   2.2450         1
   2.2500         1
   2.2550         0
   2.2600         2
   2.2650         3
   2.2700         2
   2.2750         2
   2.2800         0
   2.2850         1
   2.2900         2
   2.2950         0
   2.3000         1
   2.3050         2
   2.3100         1
   2.3150         0
   2.3200         0
   2.3250         2
   2.3300         0
   2.3350         1
   2.3400         0
   2.3450         0
   2.3500         2
   2.3550         0
   2.3600         4
   2.3650         0
   2.3700         0
   2.3750         1
   2.3800         1
   2.3850         1
   2.3900         1
   2.3950         1
   2.4000         0
   2.4050         1
   2.4100         0
   2.4150         0
   2.4200         0
   2.4250         0
   2.4300         1
   2.4350         1
   2.4400         1
   2.4450         0
   2.4500         1
   2.4550         0
   2.4600         1
   2.4650         0
   2.4700         0
   2.4750         0
   2.4800         0
   2.4850         2
   2.4900         0
   2.4950         0
   2.5000         0
